circle,cx,cy,value,radius
1,31,50,20,23.5
2,94,50,20,23.5
3,150,50,10,17.5
4,196,50,10,17.5
5,241,50,10,17.5
6,286,50,10,17.5
7,328,50,5,12
8,361,50,5,12
9,395,50,5,12
10,425,50,1,8.5
11,450,50,1,8.5
12,475,50,1,8.5
13,500,50,1,8.5
14,525,50,1,8.5
